Temperature (K)	Pressure (bar)	Density (l, kg/m3)	Volume (l, m3/kg)	Internal Energy (l, kJ/kg)	Enthalpy (l, kJ/kg)	Entropy (l, J/g*K)	Cv (l, J/g*K)	Cp (l, J/g*K)	Sound Spd. (l, m/s)	Joule-Thomson (l, K/bar)	Viscosity (l, uPa*s)	Therm. Cond. (l, W/m*K)	Surf. Tension (l, N/m)	Density (v, kg/m3)	Volume (v, m3/kg)	Internal Energy (v, kJ/kg)	Enthalpy (v, kJ/kg)	Entropy (v, J/g*K)	Cv (v, J/g*K)	Cp (v, J/g*K)	Sound Spd. (v, m/s)	Joule-Thomson (v, K/bar)	Viscosity (v, uPa*s)	Therm. Cond. (v, W/m*K)
270.00	22.100	407.72	0.0024527	232.16	237.58	1.0284	1.6053	3.4907	608.92	0.051141	60.860	0.093083	0.0036264	42.089	0.023759	498.83	551.33	2.1905	1.5954	2.8147	237.02	1.8700	9.0688	0.022504
270.05	22.125	407.61	0.0024533	232.31	237.74	1.0290	1.6055	3.4924	608.48	0.051298	60.821	0.093047	0.0036204	42.146	0.023727	498.83	551.33	2.1902	1.5958	2.8170	236.99	1.8696	9.0719	0.022518
270.09	22.151	407.50	0.0024540	232.46	237.90	1.0296	1.6057	3.4941	608.05	0.051456	60.783	0.093010	0.0036145	42.202	0.023695	498.84	551.33	2.1900	1.5962	2.8194	236.95	1.8691	9.0750	0.022532
270.14	22.176	407.40	0.0024546	232.61	238.06	1.0301	1.6059	3.4959	607.61	0.051613	60.744	0.092973	0.0036085	42.259	0.023663	498.85	551.33	2.1898	1.5966	2.8218	236.91	1.8686	9.0781	0.022547
270.19	22.202	407.29	0.0024553	232.76	238.22	1.0307	1.6061	3.4976	607.17	0.051771	60.706	0.092936	0.0036026	42.316	0.023632	498.86	551.32	2.1895	1.5970	2.8242	236.88	1.8682	9.0812	0.022561
270.23	22.227	407.18	0.0024559	232.92	238.37	1.0312	1.6063	3.4994	606.73	0.051930	60.667	0.092899	0.0035966	42.373	0.023600	498.86	551.32	2.1893	1.5974	2.8266	236.84	1.8677	9.0844	0.022576
270.28	22.253	407.08	0.0024565	233.07	238.53	1.0318	1.6065	3.5011	606.30	0.052089	60.629	0.092862	0.0035907	42.430	0.023568	498.87	551.32	2.1891	1.5978	2.8290	236.80	1.8672	9.0875	0.022590
270.33	22.278	406.97	0.0024572	233.22	238.69	1.0324	1.6067	3.5029	605.86	0.052248	60.591	0.092826	0.0035847	42.487	0.023537	498.88	551.31	2.1888	1.5982	2.8314	236.77	1.8668	9.0906	0.022605
270.37	22.304	406.86	0.0024578	233.37	238.85	1.0329	1.6069	3.5046	605.42	0.052407	60.552	0.092789	0.0035788	42.544	0.023505	498.88	551.31	2.1886	1.5987	2.8338	236.73	1.8663	9.0937	0.022619
270.42	22.330	406.75	0.0024585	233.52	239.01	1.0335	1.6071	3.5064	604.98	0.052567	60.514	0.092752	0.0035729	42.601	0.023473	498.89	551.31	2.1884	1.5991	2.8362	236.69	1.8659	9.0968	0.022634
270.47	22.355	406.65	0.0024591	233.67	239.17	1.0341	1.6073	3.5081	604.54	0.052727	60.475	0.092715	0.0035669	42.659	0.023442	498.90	551.30	2.1881	1.5995	2.8386	236.66	1.8654	9.1000	0.022648
270.51	22.381	406.54	0.0024598	233.82	239.33	1.0346	1.6075	3.5099	604.10	0.052888	60.437	0.092678	0.0035610	42.716	0.023410	498.91	551.30	2.1879	1.5999	2.8411	236.62	1.8649	9.1031	0.022663
270.56	22.407	406.43	0.0024604	233.97	239.49	1.0352	1.6078	3.5117	603.66	0.053049	60.398	0.092641	0.0035550	42.773	0.023379	498.91	551.30	2.1877	1.6003	2.8435	236.58	1.8645	9.1063	0.022677
270.61	22.432	406.32	0.0024611	234.12	239.65	1.0358	1.6080	3.5134	603.23	0.053210	60.360	0.092605	0.0035491	42.831	0.023348	498.92	551.29	2.1874	1.6007	2.8459	236.55	1.8640	9.1094	0.022692
270.65	22.458	406.21	0.0024618	234.28	239.80	1.0363	1.6082	3.5152	602.79	0.053372	60.322	0.092568	0.0035432	42.889	0.023316	498.93	551.29	2.1872	1.6011	2.8484	236.51	1.8636	9.1126	0.022707
270.70	22.484	406.11	0.0024624	234.43	239.96	1.0369	1.6084	3.5170	602.35	0.053534	60.283	0.092531	0.0035372	42.946	0.023285	498.93	551.29	2.1870	1.6016	2.8509	236.47	1.8631	9.1157	0.022721
270.75	22.510	406.00	0.0024631	234.58	240.12	1.0375	1.6086	3.5188	601.91	0.053696	60.245	0.092494	0.0035313	43.004	0.023254	498.94	551.28	2.1867	1.6020	2.8533	236.43	1.8626	9.1189	0.022736
270.79	22.536	405.89	0.0024637	234.73	240.28	1.0380	1.6088	3.5206	601.47	0.053859	60.207	0.092457	0.0035254	43.062	0.023222	498.94	551.28	2.1865	1.6024	2.8558	236.40	1.8622	9.1220	0.022751
270.84	22.561	405.78	0.0024644	234.88	240.44	1.0386	1.6090	3.5224	601.03	0.054022	60.168	0.092420	0.0035195	43.120	0.023191	498.95	551.27	2.1862	1.6028	2.8583	236.36	1.8617	9.1252	0.022765
270.89	22.587	405.67	0.0024650	235.03	240.60	1.0392	1.6092	3.5242	600.59	0.054185	60.130	0.092384	0.0035135	43.178	0.023160	498.96	551.27	2.1860	1.6032	2.8608	236.32	1.8613	9.1284	0.022780
270.93	22.613	405.57	0.0024657	235.19	240.76	1.0397	1.6094	3.5260	600.15	0.054349	60.092	0.092347	0.0035076	43.236	0.023129	498.96	551.26	2.1858	1.6036	2.8632	236.29	1.8608	9.1315	0.022795
270.98	22.639	405.46	0.0024664	235.34	240.92	1.0403	1.6096	3.5278	599.71	0.054513	60.053	0.092310	0.0035017	43.294	0.023098	498.97	551.26	2.1855	1.6041	2.8657	236.25	1.8603	9.1347	0.022810
271.03	22.665	405.35	0.0024670	235.49	241.08	1.0408	1.6098	3.5296	599.27	0.054677	60.015	0.092273	0.0034958	43.353	0.023067	498.98	551.26	2.1853	1.6045	2.8682	236.21	1.8599	9.1379	0.022824
271.07	22.691	405.24	0.0024677	235.64	241.24	1.0414	1.6100	3.5314	598.83	0.054842	59.977	0.092236	0.0034899	43.411	0.023036	498.98	551.25	2.1851	1.6049	2.8708	236.17	1.8594	9.1411	0.022839
271.12	22.717	405.13	0.0024683	235.79	241.40	1.0420	1.6103	3.5332	598.39	0.055007	59.938	0.092200	0.0034839	43.470	0.023005	498.99	551.25	2.1848	1.6053	2.8733	236.14	1.8590	9.1443	0.022854
271.17	22.743	405.02	0.0024690	235.94	241.56	1.0425	1.6105	3.5351	597.95	0.055173	59.900	0.092163	0.0034780	43.528	0.022974	498.99	551.24	2.1846	1.6057	2.8758	236.10	1.8585	9.1475	0.022869
271.21	22.769	404.91	0.0024697	236.10	241.72	1.0431	1.6107	3.5369	597.51	0.055339	59.862	0.092126	0.0034721	43.587	0.022943	499.00	551.24	2.1843	1.6062	2.8783	236.06	1.8581	9.1507	0.022884
271.26	22.795	404.80	0.0024703	236.25	241.88	1.0437	1.6109	3.5387	597.07	0.055505	59.823	0.092089	0.0034662	43.645	0.022912	499.01	551.23	2.1841	1.6066	2.8809	236.02	1.8576	9.1539	0.022899
271.31	22.821	404.70	0.0024710	236.40	242.04	1.0442	1.6111	3.5406	596.63	0.055672	59.785	0.092052	0.0034603	43.704	0.022881	499.01	551.23	2.1839	1.6070	2.8834	235.99	1.8571	9.1571	0.022914
271.35	22.847	404.59	0.0024717	236.55	242.20	1.0448	1.6113	3.5424	596.19	0.055839	59.747	0.092015	0.0034544	43.763	0.022850	499.02	551.22	2.1836	1.6074	2.8860	235.95	1.8567	9.1603	0.022929
271.40	22.873	404.48	0.0024723	236.70	242.36	1.0454	1.6115	3.5442	595.75	0.056006	59.708	0.091979	0.0034485	43.822	0.022820	499.02	551.22	2.1834	1.6078	2.8885	235.91	1.8562	9.1635	0.022944
271.45	22.899	404.37	0.0024730	236.86	242.52	1.0459	1.6117	3.5461	595.31	0.056174	59.670	0.091942	0.0034426	43.881	0.022789	499.03	551.21	2.1832	1.6083	2.8911	235.87	1.8558	9.1668	0.022959
271.49	22.925	404.26	0.0024737	237.01	242.68	1.0465	1.6119	3.5480	594.87	0.056342	59.632	0.091905	0.0034367	43.940	0.022758	499.03	551.21	2.1829	1.6087	2.8937	235.83	1.8553	9.1700	0.022974
271.54	22.951	404.15	0.0024743	237.16	242.84	1.0471	1.6122	3.5498	594.43	0.056511	59.594	0.091868	0.0034308	44.000	0.022728	499.04	551.20	2.1827	1.6091	2.8963	235.80	1.8549	9.1732	0.022989
271.59	22.978	404.04	0.0024750	237.31	243.00	1.0476	1.6124	3.5517	593.99	0.056680	59.555	0.091831	0.0034249	44.059	0.022697	499.04	551.20	2.1824	1.6095	2.8988	235.76	1.8544	9.1765	0.023004
271.63	23.004	403.93	0.0024757	237.47	243.16	1.0482	1.6126	3.5536	593.55	0.056849	59.517	0.091795	0.0034190	44.118	0.022666	499.05	551.19	2.1822	1.6100	2.9014	235.72	1.8539	9.1797	0.023019
271.68	23.030	403.82	0.0024763	237.62	243.32	1.0488	1.6128	3.5554	593.11	0.057019	59.479	0.091758	0.0034131	44.178	0.022636	499.05	551.19	2.1820	1.6104	2.9040	235.68	1.8535	9.1830	0.023034
271.73	23.056	403.71	0.0024770	237.77	243.48	1.0493	1.6130	3.5573	592.67	0.057189	59.441	0.091721	0.0034072	44.237	0.022605	499.06	551.18	2.1817	1.6108	2.9067	235.64	1.8530	9.1862	0.023050
271.77	23.083	403.60	0.0024777	237.92	243.64	1.0499	1.6132	3.5592	592.22	0.057360	59.402	0.091684	0.0034013	44.297	0.022575	499.07	551.17	2.1815	1.6112	2.9093	235.61	1.8526	9.1895	0.023065
271.82	23.109	403.49	0.0024784	238.08	243.80	1.0505	1.6134	3.5611	591.78	0.057530	59.364	0.091647	0.0033954	44.357	0.022544	499.07	551.17	2.1812	1.6117	2.9119	235.57	1.8521	9.1927	0.023080
271.87	23.135	403.38	0.0024790	238.23	243.97	1.0510	1.6136	3.5630	591.34	0.057702	59.326	0.091611	0.0033896	44.417	0.022514	499.08	551.16	2.1810	1.6121	2.9145	235.53	1.8517	9.1960	0.023095
271.91	23.161	403.27	0.0024797	238.38	244.13	1.0516	1.6139	3.5649	590.90	0.057873	59.288	0.091574	0.0033837	44.476	0.022484	499.08	551.16	2.1808	1.6125	2.9172	235.49	1.8512	9.1993	0.023111
271.96	23.188	403.16	0.0024804	238.54	244.29	1.0522	1.6141	3.5668	590.46	0.058045	59.249	0.091537	0.0033778	44.536	0.022453	499.08	551.15	2.1805	1.6129	2.9198	235.45	1.8507	9.2025	0.023126
272.01	23.214	403.05	0.0024811	238.69	244.45	1.0528	1.6143	3.5687	590.02	0.058218	59.211	0.091500	0.0033719	44.597	0.022423	499.09	551.14	2.1803	1.6134	2.9225	235.42	1.8503	9.2058	0.023141
272.05	23.241	402.94	0.0024818	238.84	244.61	1.0533	1.6145	3.5706	589.57	0.058391	59.173	0.091463	0.0033660	44.657	0.022393	499.09	551.14	2.1800	1.6138	2.9251	235.38	1.8498	9.2091	0.023157
272.10	23.267	402.83	0.0024824	238.99	244.77	1.0539	1.6147	3.5725	589.13	0.058564	59.135	0.091427	0.0033601	44.717	0.022363	499.10	551.13	2.1798	1.6142	2.9278	235.34	1.8494	9.2124	0.023172
272.15	23.293	402.72	0.0024831	239.15	244.93	1.0545	1.6149	3.5745	588.69	0.058737	59.097	0.091390	0.0033543	44.777	0.022333	499.10	551.12	2.1796	1.6147	2.9305	235.30	1.8489	9.2157	0.023187
272.19	23.320	402.61	0.0024838	239.30	245.09	1.0550	1.6151	3.5764	588.25	0.058911	59.058	0.091353	0.0033484	44.838	0.022303	499.11	551.12	2.1793	1.6151	2.9332	235.26	1.8485	9.2190	0.023203
272.24	23.346	402.50	0.0024845	239.45	245.25	1.0556	1.6154	3.5783	587.80	0.059086	59.020	0.091316	0.0033425	44.898	0.022273	499.11	551.11	2.1791	1.6155	2.9359	235.22	1.8480	9.2223	0.023218
272.29	23.373	402.39	0.0024852	239.61	245.42	1.0562	1.6156	3.5802	587.36	0.059261	58.982	0.091279	0.0033367	44.959	0.022242	499.12	551.10	2.1788	1.6160	2.9386	235.18	1.8476	9.2256	0.023234
272.33	23.399	402.28	0.0024859	239.76	245.58	1.0567	1.6158	3.5822	586.92	0.059436	58.944	0.091243	0.0033308	45.020	0.022212	499.12	551.10	2.1786	1.6164	2.9413	235.15	1.8471	9.2289	0.023249
272.38	23.426	402.17	0.0024865	239.91	245.74	1.0573	1.6160	3.5841	586.48	0.059611	58.906	0.091206	0.0033249	45.081	0.022183	499.13	551.09	2.1784	1.6168	2.9440	235.11	1.8466	9.2322	0.023265
272.43	23.453	402.05	0.0024872	240.07	245.90	1.0579	1.6162	3.5861	586.03	0.059787	58.867	0.091169	0.0033191	45.141	0.022153	499.13	551.08	2.1781	1.6173	2.9467	235.07	1.8462	9.2355	0.023280
272.47	23.479	401.94	0.0024879	240.22	246.06	1.0584	1.6164	3.5880	585.59	0.059964	58.829	0.091132	0.0033132	45.202	0.022123	499.13	551.08	2.1779	1.6177	2.9494	235.03	1.8457	9.2389	0.023296
272.52	23.506	401.83	0.0024886	240.37	246.22	1.0590	1.6166	3.5900	585.15	0.060141	58.791	0.091096	0.0033073	45.263	0.022093	499.14	551.07	2.1776	1.6181	2.9522	234.99	1.8453	9.2422	0.023311
272.57	23.532	401.72	0.0024893	240.53	246.39	1.0596	1.6169	3.5920	584.70	0.060318	58.753	0.091059	0.0033015	45.325	0.022063	499.14	551.06	2.1774	1.6186	2.9549	234.95	1.8448	9.2455	0.023327
272.61	23.559	401.61	0.0024900	240.68	246.55	1.0601	1.6171	3.5940	584.26	0.060495	58.715	0.091022	0.0032956	45.386	0.022033	499.15	551.05	2.1771	1.6190	2.9577	234.91	1.8444	9.2489	0.023343
272.66	23.586	401.50	0.0024907	240.83	246.71	1.0607	1.6173	3.5959	583.82	0.060674	58.677	0.090985	0.0032898	45.447	0.022004	499.15	551.05	2.1769	1.6194	2.9604	234.87	1.8439	9.2522	0.023358
272.71	23.612	401.39	0.0024914	240.99	246.87	1.0613	1.6175	3.5979	583.37	0.060852	58.639	0.090948	0.0032839	45.509	0.021974	499.15	551.04	2.1767	1.6199	2.9632	234.83	1.8435	9.2556	0.023374
272.75	23.639	401.27	0.0024921	241.14	247.03	1.0619	1.6177	3.5999	582.93	0.061031	58.600	0.090912	0.0032781	45.570	0.021944	499.16	551.03	2.1764	1.6203	2.9660	234.80	1.8430	9.2589	0.023390
272.80	23.666	401.16	0.0024928	241.30	247.20	1.0624	1.6179	3.6019	582.49	0.061210	58.562	0.090875	0.0032722	45.632	0.021915	499.16	551.02	2.1762	1.6207	2.9688	234.76	1.8426	9.2623	0.023406
272.85	23.693	401.05	0.0024934	241.45	247.36	1.0630	1.6182	3.6039	582.04	0.061390	58.524	0.090838	0.0032664	45.693	0.021885	499.16	551.02	2.1759	1.6212	2.9716	234.72	1.8421	9.2656	0.023421
272.89	23.720	400.94	0.0024941	241.60	247.52	1.0636	1.6184	3.6059	581.60	0.061570	58.486	0.090801	0.0032605	45.755	0.021855	499.17	551.01	2.1757	1.6216	2.9744	234.68	1.8416	9.2690	0.023437
272.94	23.746	400.83	0.0024948	241.76	247.68	1.0641	1.6186	3.6079	581.16	0.061750	58.448	0.090764	0.0032547	45.817	0.021826	499.17	551.00	2.1754	1.6221	2.9772	234.64	1.8412	9.2724	0.023453
272.99	23.773	400.72	0.0024955	241.91	247.84	1.0647	1.6188	3.6099	580.71	0.061931	58.410	0.090728	0.0032488	45.879	0.021796	499.17	550.99	2.1752	1.6225	2.9800	234.60	1.8407	9.2758	0.023469
273.03	23.800	400.60	0.0024962	242.07	248.01	1.0653	1.6190	3.6119	580.27	0.062113	58.372	0.090691	0.0032430	45.941	0.021767	499.18	550.98	2.1749	1.6229	2.9828	234.56	1.8403	9.2791	0.023485
273.08	23.827	400.49	0.0024969	242.22	248.17	1.0658	1.6192	3.6140	579.82	0.062295	58.334	0.090654	0.0032371	46.003	0.021738	499.18	550.97	2.1747	1.6234	2.9856	234.52	1.8398	9.2825	0.023501
273.13	23.854	400.38	0.0024976	242.37	248.33	1.0664	1.6195	3.6160	579.38	0.062477	58.295	0.090617	0.0032313	46.066	0.021708	499.18	550.97	2.1745	1.6238	2.9885	234.48	1.8394	9.2859	0.023517
273.17	23.881	400.27	0.0024983	242.53	248.50	1.0670	1.6197	3.6180	578.93	0.062659	58.257	0.090581	0.0032255	46.128	0.021679	499.19	550.96	2.1742	1.6243	2.9913	234.44	1.8389	9.2893	0.023533
273.22	23.908	400.15	0.0024990	242.68	248.66	1.0676	1.6199	3.6201	578.49	0.062843	58.219	0.090544	0.0032196	46.190	0.021650	499.19	550.95	2.1740	1.6247	2.9942	234.40	1.8385	9.2927	0.023549
273.27	23.935	400.04	0.0024997	242.84	248.82	1.0681	1.6201	3.6221	578.04	0.063026	58.181	0.090507	0.0032138	46.253	0.021620	499.19	550.94	2.1737	1.6251	2.9971	234.36	1.8380	9.2961	0.023565
273.31	23.962	399.93	0.0025004	242.99	248.98	1.0687	1.6203	3.6242	577.60	0.063210	58.143	0.090470	0.0032080	46.316	0.021591	499.20	550.93	2.1735	1.6256	2.9999	234.32	1.8376	9.2996	0.023581
273.36	23.989	399.82	0.0025012	243.15	249.15	1.0693	1.6206	3.6262	577.15	0.063394	58.105	0.090433	0.0032021	46.378	0.021562	499.20	550.92	2.1732	1.6260	3.0028	234.28	1.8371	9.3030	0.023597
273.41	24.016	399.70	0.0025019	243.30	249.31	1.0698	1.6208	3.6283	576.71	0.063579	58.067	0.090397	0.0031963	46.441	0.021533	499.20	550.91	2.1730	1.6265	3.0057	234.24	1.8367	9.3064	0.023613
273.45	24.043	399.59	0.0025026	243.46	249.47	1.0704	1.6210	3.6303	576.26	0.063764	58.029	0.090360	0.0031905	46.504	0.021504	499.20	550.90	2.1727	1.6269	3.0086	234.20	1.8362	9.3098	0.023629
273.50	24.070	399.48	0.0025033	243.61	249.64	1.0710	1.6212	3.6324	575.82	0.063950	57.991	0.090323	0.0031847	46.567	0.021474	499.21	550.90	2.1725	1.6274	3.0115	234.16	1.8357	9.3133	0.023645
273.55	24.097	399.36	0.0025040	243.77	249.80	1.0716	1.6214	3.6345	575.37	0.064136	57.953	0.090286	0.0031789	46.630	0.021445	499.21	550.89	2.1722	1.6278	3.0144	234.12	1.8353	9.3167	0.023661
273.59	24.124	399.25	0.0025047	243.92	249.96	1.0721	1.6217	3.6366	574.93	0.064323	57.915	0.090250	0.0031730	46.693	0.021416	499.21	550.88	2.1720	1.6283	3.0174	234.08	1.8348	9.3202	0.023678
273.64	24.151	399.14	0.0025054	244.08	250.13	1.0727	1.6219	3.6387	574.48	0.064510	57.877	0.090213	0.0031672	46.756	0.021387	499.21	550.87	2.1717	1.6287	3.0203	234.04	1.8344	9.3236	0.023694
273.69	24.178	399.02	0.0025061	244.23	250.29	1.0733	1.6221	3.6407	574.03	0.064697	57.839	0.090176	0.0031614	46.820	0.021358	499.22	550.86	2.1715	1.6292	3.0233	234.00	1.8339	9.3271	0.023710
273.73	24.206	398.91	0.0025068	244.39	250.45	1.0739	1.6223	3.6428	573.59	0.064885	57.800	0.090139	0.0031556	46.883	0.021330	499.22	550.85	2.1713	1.6296	3.0262	233.96	1.8335	9.3305	0.023726
273.78	24.233	398.80	0.0025075	244.54	250.62	1.0744	1.6225	3.6449	573.14	0.065073	57.762	0.090102	0.0031498	46.947	0.021301	499.22	550.84	2.1710	1.6301	3.0292	233.92	1.8330	9.3340	0.023743
273.83	24.260	398.68	0.0025083	244.70	250.78	1.0750	1.6228	3.6471	572.69	0.065262	57.724	0.090066	0.0031440	47.011	0.021272	499.22	550.83	2.1708	1.6305	3.0321	233.88	1.8326	9.3375	0.023759
273.87	24.287	398.57	0.0025090	244.85	250.94	1.0756	1.6230	3.6492	572.25	0.065451	57.686	0.090029	0.0031382	47.074	0.021243	499.22	550.82	2.1705	1.6310	3.0351	233.84	1.8321	9.3409	0.023775
273.92	24.315	398.46	0.0025097	245.01	251.11	1.0761	1.6232	3.6513	571.80	0.065641	57.648	0.089992	0.0031324	47.138	0.021214	499.23	550.81	2.1703	1.6314	3.0381	233.80	1.8317	9.3444	0.023792
273.97	24.342	398.34	0.0025104	245.16	251.27	1.0767	1.6234	3.6534	571.36	0.065831	57.610	0.089955	0.0031266	47.202	0.021185	499.23	550.80	2.1700	1.6319	3.0411	233.76	1.8312	9.3479	0.023808
274.01	24.369	398.23	0.0025111	245.32	251.44	1.0773	1.6237	3.6556	570.91	0.066022	57.572	0.089919	0.0031208	47.266	0.021157	499.23	550.79	2.1698	1.6323	3.0441	233.72	1.8308	9.3514	0.023825
274.06	24.397	398.11	0.0025119	245.47	251.60	1.0779	1.6239	3.6577	570.46	0.066213	57.534	0.089882	0.0031150	47.330	0.021128	499.23	550.78	2.1695	1.6328	3.0471	233.68	1.8303	9.3549	0.023841
274.11	24.424	398.00	0.0025126	245.63	251.76	1.0784	1.6241	3.6598	570.01	0.066404	57.496	0.089845	0.0031092	47.395	0.021099	499.23	550.77	2.1693	1.6332	3.0501	233.64	1.8299	9.3584	0.023858
274.15	24.451	397.88	0.0025133	245.78	251.93	1.0790	1.6243	3.6620	569.57	0.066596	57.458	0.089808	0.0031034	47.459	0.021071	499.23	550.76	2.1690	1.6337	3.0532	233.60	1.8294	9.3619	0.023874
274.20	24.479	397.77	0.0025140	245.94	252.09	1.0796	1.6245	3.6641	569.12	0.066789	57.420	0.089772	0.0030976	47.523	0.021042	499.24	550.75	2.1688	1.6341	3.0562	233.56	1.8289	9.3654	0.023891
274.25	24.506	397.66	0.0025147	246.09	252.26	1.0802	1.6248	3.6663	568.67	0.066982	57.382	0.089735	0.0030918	47.588	0.021014	499.24	550.73	2.1685	1.6346	3.0593	233.52	1.8285	9.3689	0.023908
274.29	24.534	397.54	0.0025155	246.25	252.42	1.0807	1.6250	3.6685	568.22	0.067175	57.344	0.089698	0.0030860	47.652	0.020985	499.24	550.72	2.1683	1.6350	3.0623	233.48	1.8280	9.3725	0.023924
274.34	24.561	397.43	0.0025162	246.41	252.59	1.0813	1.6252	3.6706	567.78	0.067369	57.306	0.089661	0.0030802	47.717	0.020957	499.24	550.71	2.1680	1.6355	3.0654	233.44	1.8276	9.3760	0.023941
274.39	24.589	397.31	0.0025169	246.56	252.75	1.0819	1.6254	3.6728	567.33	0.067563	57.268	0.089624	0.0030744	47.782	0.020928	499.24	550.70	2.1678	1.6359	3.0685	233.40	1.8271	9.3795	0.023958
274.43	24.616	397.20	0.0025176	246.72	252.91	1.0825	1.6257	3.6750	566.88	0.067758	57.230	0.089588	0.0030686	47.847	0.020900	499.24	550.69	2.1675	1.6364	3.0716	233.35	1.8267	9.3831	0.023974
274.48	24.644	397.08	0.0025184	246.87	253.08	1.0830	1.6259	3.6772	566.43	0.067953	57.192	0.089551	0.0030628	47.912	0.020872	499.24	550.68	2.1673	1.6369	3.0747	233.31	1.8262	9.3866	0.023991
274.53	24.671	396.97	0.0025191	247.03	253.24	1.0836	1.6261	3.6794	565.98	0.068149	57.154	0.089514	0.0030571	47.977	0.020843	499.24	550.67	2.1670	1.6373	3.0778	233.27	1.8258	9.3902	0.024008
274.57	24.699	396.85	0.0025198	247.19	253.41	1.0842	1.6263	3.6816	565.54	0.068345	57.116	0.089477	0.0030513	48.042	0.020815	499.25	550.66	2.1668	1.6378	3.0809	233.23	1.8253	9.3937	0.024025
274.62	24.727	396.74	0.0025206	247.34	253.57	1.0848	1.6266	3.6838	565.09	0.068542	57.078	0.089441	0.0030455	48.108	0.020787	499.25	550.64	2.1665	1.6382	3.0840	233.19	1.8249	9.3973	0.024042
274.67	24.754	396.62	0.0025213	247.50	253.74	1.0853	1.6268	3.6860	564.64	0.068739	57.040	0.089404	0.0030397	48.173	0.020758	499.25	550.63	2.1663	1.6387	3.0872	233.15	1.8244	9.4008	0.024059
274.71	24.782	396.50	0.0025220	247.65	253.90	1.0859	1.6270	3.6883	564.19	0.068936	57.002	0.089367	0.0030340	48.239	0.020730	499.25	550.62	2.1660	1.6392	3.0903	233.11	1.8240	9.4044	0.024075
274.76	24.810	396.39	0.0025228	247.81	254.07	1.0865	1.6272	3.6905	563.74	0.069135	56.964	0.089330	0.0030282	48.304	0.020702	499.25	550.61	2.1658	1.6396	3.0935	233.07	1.8235	9.4080	0.024092
